# Energy	Effective Area
0.030	1.127258e-07
0.090	1.875809e-07
0.150	1.948651e-42
0.210	3.562954e-22
0.270	2.588138e-13
0.330	9.995403e-09
0.390	3.515133e-06
0.450	1.574163e-04
0.510	1.822808e-03
0.570	9.255509e-03
0.630	2.778806e-02
0.690	6.096847e-02
0.750	1.113236e-01
0.810	1.743287e-01
0.870	2.437329e-01
0.930	3.145231e-01
0.990	3.840191e-01
1.050	4.482432e-01
1.110	5.067278e-01
1.170	5.586470e-01
1.230	6.050337e-01
1.290	6.468891e-01
1.350	6.838881e-01
1.410	7.160667e-01
1.470	7.444829e-01
1.530	7.677425e-01
1.590	7.222606e-01
1.650	7.453289e-01
1.710	7.660811e-01
1.770	7.850811e-01
1.830	8.003856e-01
1.890	8.122497e-01
1.950	8.262527e-01
2.010	8.392129e-01
2.070	8.510353e-01
2.130	8.616709e-01
2.190	8.713972e-01
2.250	8.804397e-01
2.310	8.887134e-01
2.370	8.962899e-01
2.430	9.031314e-01
2.490	9.094128e-01
2.550	9.152771e-01
2.610	9.206665e-01
2.670	9.255511e-01
2.730	9.300529e-01
2.790	9.342721e-01
2.850	9.381651e-01
2.910	9.417076e-01
2.970	9.449856e-01
3.030	9.480702e-01
3.090	9.509287e-01
3.150	9.535419e-01
3.210	9.559720e-01
3.270	9.582708e-01
3.330	9.604126e-01
3.390	9.623806e-01
3.450	9.642200e-01
3.510	9.659684e-01
3.570	9.676051e-01
3.630	9.691389e-01
3.690	9.705562e-01
3.750	9.718879e-01
3.810	9.731605e-01
3.870	9.743578e-01
3.930	9.754685e-01
3.990	9.765160e-01
4.050	9.775207e-01
4.110	9.784692e-01
4.170	9.793519e-01
4.230	9.801870e-01
4.290	9.809901e-01
4.350	9.817505e-01
4.410	9.824601e-01
4.470	9.831332e-01
4.530	9.837821e-01
4.590	9.843982e-01
4.650	9.849745e-01
4.710	9.855224e-01
4.770	9.860520e-01
4.830	9.865559e-01
4.890	9.870356e-01
4.950	9.874856e-01
5.010	9.879146e-01
5.070	9.883304e-01
5.130	9.887271e-01
5.190	9.891000e-01
5.250	9.894563e-01
5.310	9.898023e-01
5.370	9.901331e-01
5.430	9.904446e-01
5.490	9.907429e-01
5.550	9.910330e-01
5.610	9.913110e-01
5.670	9.915732e-01
5.730	9.918247e-01
5.790	9.920698e-01
5.850	9.923050e-01
5.910	9.925272e-01
5.970	9.927407e-01
6.030	9.929490e-01
6.090	9.931492e-01
6.150	9.933415e-01
6.210	9.935236e-01
6.270	9.936987e-01
6.330	9.938698e-01
6.390	9.940342e-01
6.450	9.941899e-01
6.510	9.943395e-01
6.570	9.944855e-01
6.630	9.946255e-01
6.690	9.947577e-01
6.750	9.948842e-01
6.810	9.950070e-01
6.870	9.951239e-01
6.930	9.952331e-01
6.990	9.953363e-01
7.050	9.954347e-01
7.110	9.955265e-01
7.170	9.956099e-01
7.230	9.956859e-01
7.290	9.957552e-01
7.350	9.958158e-01
7.410	9.958670e-01
7.470	9.959076e-01
7.530	9.959374e-01
7.590	9.959559e-01
7.650	9.959615e-01
7.710	9.959532e-01
7.770	9.959300e-01
7.830	9.958900e-01
7.890	9.958321e-01
7.950	9.957562e-01
8.010	9.956600e-01
8.070	9.955399e-01
8.130	9.953957e-01
8.190	9.952286e-01
8.250	9.950345e-01
8.310	9.948082e-01
8.370	9.945506e-01
8.430	9.942598e-01
8.490	9.939394e-01
8.550	9.935829e-01
8.610	9.931822e-01
8.670	9.927406e-01
8.730	9.922643e-01
8.790	9.917443e-01
8.850	9.911700e-01
8.910	9.905471e-01
8.970	9.898850e-01
9.030	9.891722e-01
9.090	9.883948e-01
9.150	9.875619e-01
9.210	9.866863e-01
9.270	9.857537e-01
9.330	9.847467e-01
9.390	9.836782e-01
9.450	9.825651e-01
9.510	9.813897e-01
9.570	9.801310e-01
9.630	9.788061e-01
9.690	9.774139e-01
9.750	9.759771e-01
9.810	9.744732e-01
9.870	9.728767e-01
9.930	9.712100e-01
9.990	9.695006e-01
10.050	9.677221e-01
10.110	9.658449e-01
10.170	9.638962e-01
10.230	9.619084e-01
10.290	9.598508e-01
10.350	9.576899e-01
10.410	9.554577e-01
10.470	9.531913e-01
10.530	9.508560e-01
10.590	9.484143e-01
10.650	9.459028e-01
10.710	9.433633e-01
10.770	9.407572e-01
10.830	9.380427e-01
10.890	9.352613e-01
10.950	9.324139e-01
11.010	9.295476e-01
11.070	9.266189e-01
11.130	9.235813e-01
11.190	9.204818e-01
11.250	9.173714e-01
11.310	9.142030e-01
11.370	9.109265e-01
11.430	9.075928e-01
11.490	9.042568e-01
11.550	9.008678e-01
11.610	8.973723e-01
11.670	8.938250e-01
11.730	8.902842e-01
11.790	8.866956e-01
11.850	8.830031e-01
11.910	8.792645e-01
11.970	8.755410e-01
12.030	8.717754e-01
12.090	8.679089e-01
12.150	8.640023e-01
12.210	8.600570e-01
12.270	8.561372e-01
12.330	8.521828e-01
12.390	8.481317e-01
12.450	8.440479e-01
12.510	8.399976e-01
12.570	8.359183e-01
12.630	8.317463e-01
12.690	8.275474e-01
12.750	8.233894e-01
12.810	8.192080e-01
12.870	8.149379e-01
12.930	8.106466e-01
12.990	8.064030e-01
13.050	8.021414e-01
13.110	7.977952e-01
13.170	7.934331e-01
13.230	7.891250e-01
13.290	7.848039e-01
13.350	7.804023e-01
13.410	7.759899e-01
13.470	7.715679e-01
13.530	7.672067e-01
13.590	7.628384e-01
13.650	7.583947e-01
13.710	7.539460e-01
13.770	7.495629e-01
13.830	7.451769e-01
13.890	7.407195e-01
13.950	7.362612e-01
14.010	7.318726e-01
14.070	7.274851e-01
14.130	7.230300e-01
14.190	7.185777e-01
14.250	7.141987e-01
14.310	7.098243e-01
14.370	7.053858e-01
14.430	7.009537e-01
14.490	6.965977e-01
14.550	6.922494e-01
14.610	6.878406e-01
14.670	6.834411e-01
14.730	6.790517e-01
14.790	6.747413e-01
14.850	6.704419e-01
14.910	6.660862e-01
14.970	6.617430e-01
15.030	6.574806e-01
15.090	6.532315e-01
15.150	6.489291e-01
15.210	6.446416e-01
15.270	6.404360e-01
15.330	6.362458e-01
15.390	6.320053e-01
15.450	6.277815e-01
15.510	6.236405e-01
15.570	6.195167e-01
15.630	6.153452e-01
15.690	6.111921e-01
15.750	6.071222e-01
15.810	6.030710e-01
15.870	5.989746e-01
15.930	5.948980e-01
15.990	5.908415e-01
16.050	5.868682e-01
16.110	5.829150e-01
16.170	5.789197e-01
16.230	5.749456e-01
16.290	5.710543e-01
16.350	5.671840e-01
16.410	5.632739e-01
16.470	5.593857e-01
16.530	5.555799e-01
16.590	5.517958e-01
16.650	5.479738e-01
16.710	5.441745e-01
16.770	5.404567e-01
16.830	5.367612e-01
16.890	5.330297e-01
16.950	5.293214e-01
17.010	5.256935e-01
17.070	5.220883e-01
17.130	5.184490e-01
17.190	5.148331e-01
17.250	5.112406e-01
17.310	5.077272e-01
17.370	5.042367e-01
17.430	5.007142e-01
17.490	4.972152e-01
17.550	4.937939e-01
17.610	4.903957e-01
17.670	4.869669e-01
17.730	4.835617e-01
17.790	4.802328e-01
17.850	4.769269e-01
17.910	4.735918e-01
17.970	4.702803e-01
18.030	4.670435e-01
18.090	4.638296e-01
18.150	4.605878e-01
18.210	4.573695e-01
18.270	4.541745e-01
18.330	4.510522e-01
18.390	4.479525e-01
18.450	4.448265e-01
18.510	4.417237e-01
18.570	4.386918e-01
18.630	4.356822e-01
18.690	4.326475e-01
18.750	4.296356e-01
18.810	4.266929e-01
18.870	4.237723e-01
18.930	4.208275e-01
18.990	4.179053e-01
19.050	4.150504e-01
19.110	4.122172e-01
19.170	4.093610e-01
19.230	4.065268e-01
19.290	4.037582e-01
19.350	4.010109e-01
19.410	3.982414e-01
19.470	3.954936e-01
19.530	3.927672e-01
19.590	3.901043e-01
19.650	3.874620e-01
19.710	3.847987e-01
19.770	3.821564e-01
19.830	3.795758e-01
19.890	3.770154e-01
19.950	3.744347e-01
20.010	3.718747e-01
20.070	3.693747e-01
20.130	3.668944e-01
20.190	3.643947e-01
20.250	3.619150e-01
20.310	3.594934e-01
20.370	3.570910e-01
20.430	3.546698e-01
20.490	3.522682e-01
20.550	3.499229e-01
20.610	3.475963e-01
20.670	3.452516e-01
20.730	3.429259e-01
20.790	3.406190e-01
20.850	3.383663e-01
20.910	3.361317e-01
20.970	3.338798e-01
21.030	3.316462e-01
21.090	3.294652e-01
21.150	3.273017e-01
21.210	3.251215e-01
21.270	3.229591e-01
21.330	3.208475e-01
21.390	3.187530e-01
21.450	3.166425e-01
21.510	3.145491e-01
21.570	3.125050e-01
21.630	3.104775e-01
21.690	3.084344e-01
21.750	3.064079e-01
21.810	3.044293e-01
21.870	3.024666e-01
21.930	3.004889e-01
21.990	2.985273e-01
22.050	2.965818e-01
22.110	2.946821e-01
22.170	2.927978e-01
22.230	2.908991e-01
22.290	2.890159e-01
22.350	2.871771e-01
22.410	2.853532e-01
22.470	2.835153e-01
22.530	2.816924e-01
22.590	2.799125e-01
22.650	2.781469e-01
22.710	2.763679e-01
22.770	2.746033e-01
22.830	2.728804e-01
22.890	2.711713e-01
22.950	2.694492e-01
23.010	2.677411e-01
23.070	2.660732e-01
23.130	2.644188e-01
23.190	2.627517e-01
23.250	2.610981e-01
23.310	2.594580e-01
23.370	2.578566e-01
23.430	2.562680e-01
23.490	2.546672e-01
23.550	2.530793e-01
23.610	2.515289e-01
23.670	2.499909e-01
23.730	2.484410e-01
23.790	2.469037e-01
23.850	2.454025e-01
23.910	2.439134e-01
23.970	2.424128e-01
24.030	2.409242e-01
24.090	2.394707e-01
24.150	2.380288e-01
24.210	2.365756e-01
24.270	2.351342e-01
24.330	2.337267e-01
24.390	2.323303e-01
24.450	2.309231e-01
24.510	2.295272e-01
24.570	2.281425e-01
24.630	2.267903e-01
24.690	2.254488e-01
24.750	2.240969e-01
24.810	2.227557e-01
24.870	2.214460e-01
24.930	2.201466e-01
24.990	2.188371e-01
25.050	2.175380e-01
25.110	2.162693e-01
25.170	2.150106e-01
25.230	2.137420e-01
25.290	2.124834e-01
25.350	2.112543e-01
25.410	2.100349e-01
25.470	2.088058e-01
25.530	2.075864e-01
25.590	2.063955e-01
25.650	2.052140e-01
25.710	2.040230e-01
25.770	2.028415e-01
25.830	2.016693e-01
25.890	2.005244e-01
25.950	1.993884e-01
26.010	1.982433e-01
26.070	1.971073e-01
26.130	1.959977e-01
26.190	1.948967e-01
26.250	1.937868e-01
26.310	1.926857e-01
26.370	1.916101e-01
26.430	1.905429e-01
26.490	1.894671e-01
26.550	1.883996e-01
26.610	1.873570e-01
26.670	1.863223e-01
26.730	1.852793e-01
26.790	1.842444e-01
26.850	1.832334e-01
26.910	1.822302e-01
26.970	1.812189e-01
27.030	1.802154e-01
27.090	1.792196e-01
27.150	1.782468e-01
27.210	1.772814e-01
27.270	1.763082e-01
27.330	1.753425e-01
27.390	1.743990e-01
27.450	1.734627e-01
27.510	1.725187e-01
27.570	1.715820e-01
27.630	1.706668e-01
27.690	1.697585e-01
27.750	1.688428e-01
27.810	1.679340e-01
27.870	1.670462e-01
27.930	1.661650e-01
27.990	1.652765e-01
28.050	1.643948e-01
28.110	1.635197e-01
28.170	1.626647e-01
28.230	1.618161e-01
28.290	1.609604e-01
28.350	1.601112e-01
28.410	1.592815e-01
28.470	1.584579e-01
28.530	1.576274e-01
28.590	1.568032e-01
28.650	1.559978e-01
28.710	1.551984e-01
28.770	1.543922e-01
28.830	1.535921e-01
28.890	1.528103e-01
28.950	1.520342e-01
29.010	1.512516e-01
29.070	1.504747e-01
29.130	1.497156e-01
29.190	1.489621e-01
29.250	1.482022e-01
29.310	1.474478e-01
29.370	1.466991e-01
29.430	1.459673e-01
29.490	1.452409e-01
29.550	1.445083e-01
29.610	1.437811e-01
29.670	1.430704e-01
29.730	1.423649e-01
29.790	1.416533e-01
29.850	1.409469e-01
29.910	1.402565e-01
29.970	1.395711e-01
30.030	1.388797e-01
30.090	1.381931e-01
30.150	1.375221e-01
30.210	1.368559e-01
30.270	1.361840e-01
30.330	1.355169e-01
30.390	1.348649e-01
30.450	1.342175e-01
30.510	1.335646e-01
30.570	1.329163e-01
30.630	1.322726e-01
30.690	1.316435e-01
